wavelength (nm)	eqe(%)
3.370000000000000000e+02	3.379080801029758163e+01
3.380000000000000000e+02	3.364914595308125911e+01
3.390000000000000000e+02	3.352001845721748907e+01
3.400000000000000000e+02	3.340342552270627152e+01
3.410000000000000000e+02	3.329936714954759935e+01
3.420000000000000000e+02	3.320784333774148678e+01
3.430000000000000000e+02	3.312885408728791958e+01
3.440000000000000000e+02	3.306239939818690488e+01
3.450000000000000000e+02	3.300847927043844265e+01
3.460000000000000000e+02	3.296709370404253292e+01
3.470000000000000000e+02	3.293824269899916857e+01
3.480000000000000000e+02	3.292192625530835670e+01
3.490000000000000000e+02	3.291814437297010443e+01
3.500000000000000000e+02	3.292689705198439043e+01
3.510000000000000000e+02	3.294818429235123602e+01
3.520000000000000000e+02	3.298200609407063411e+01
3.530000000000000000e+02	3.302836245714257757e+01
3.540000000000000000e+02	3.308725338156708062e+01
3.550000000000000000e+02	3.315867886734412906e+01
3.560000000000000000e+02	3.324263891447372998e+01
3.570000000000000000e+02	3.333913352295587629e+01
3.580000000000000000e+02	3.344816269279058218e+01
3.590000000000000000e+02	3.356972642397851558e+01
3.600000000000000000e+02	3.367146911747068572e+01
3.610000000000000000e+02	3.374539403217576705e+01
3.620000000000000000e+02	3.379753117562664499e+01
3.630000000000000000e+02	3.384117057547064888e+01
3.640000000000000000e+02	3.389965126303706455e+01
3.650000000000000000e+02	3.399971143913634819e+01
3.660000000000000000e+02	3.416578213183535695e+01
3.670000000000000000e+02	3.441142817620274741e+01
3.680000000000000000e+02	3.472855808965652358e+01
3.690000000000000000e+02	3.508630589268126698e+01
3.700000000000000000e+02	3.545431189031664587e+01
3.710000000000000000e+02	3.581229789472880753e+01
3.720000000000000000e+02	3.615023958791812930e+01
3.730000000000000000e+02	3.646709641400166646e+01
3.740000000000000000e+02	3.676882069292443589e+01
3.750000000000000000e+02	3.706277977644816701e+01
3.760000000000000000e+02	3.735613021413378476e+01
3.770000000000000000e+02	3.765482164162631307e+01
3.780000000000000000e+02	3.796232808043116336e+01
3.790000000000000000e+02	3.827948652485190451e+01
3.800000000000000000e+02	3.860777830042146519e+01
3.810000000000000000e+02	3.895052078814714491e+01
3.820000000000000000e+02	3.931328172382515618e+01
3.830000000000000000e+02	3.970442955190454626e+01
3.840000000000000000e+02	4.013399128375879599e+01
3.850000000000000000e+02	4.060660309130432921e+01
3.860000000000000000e+02	4.111935114210110243e+01
3.870000000000000000e+02	4.166115799100420958e+01
3.880000000000000000e+02	4.221247517427524798e+01
3.890000000000000000e+02	4.274872166999545442e+01
3.900000000000000000e+02	4.325245177714703715e+01
3.910000000000000000e+02	4.371566561898453784e+01
3.920000000000000000e+02	4.413879014915967502e+01
3.930000000000000000e+02	4.452981656501292207e+01
3.940000000000000000e+02	4.490211224246254318e+01
3.950000000000000000e+02	4.526759522618267084e+01
3.960000000000000000e+02	4.563571128541550337e+01
3.970000000000000000e+02	4.601405965773964368e+01
3.980000000000000000e+02	4.640884141917492656e+01
3.990000000000000000e+02	4.682500180098147524e+01
4.000000000000000000e+02	4.726550246284399037e+01
4.010000000000000000e+02	4.772991119677691074e+01
4.020000000000000000e+02	4.821302524164509862e+01
4.030000000000000000e+02	4.870393137155802066e+01
4.040000000000000000e+02	4.918730122706642760e+01
4.050000000000000000e+02	4.964971505448801281e+01
4.060000000000000000e+02	5.008193520317443870e+01
4.070000000000000000e+02	5.047942932100220759e+01
4.080000000000000000e+02	5.084281469554976240e+01
4.090000000000000000e+02	5.117745991517203663e+01
4.100000000000000000e+02	5.148990001345914180e+01
4.110000000000000000e+02	5.178622336524731651e+01
4.120000000000000000e+02	5.207100303277415776e+01
4.130000000000000000e+02	5.234614985788639530e+01
4.140000000000000000e+02	5.261066865176744045e+01
4.150000000000000000e+02	5.286332793144701725e+01
4.160000000000000000e+02	5.310402940111145398e+01
4.170000000000000000e+02	5.333455344531270725e+01
4.180000000000000000e+02	5.355929853470124158e+01
4.190000000000000000e+02	5.378525589162333631e+01
4.200000000000000000e+02	5.401932236960682587e+01
4.210000000000000000e+02	5.426708750897233813e+01
4.220000000000000000e+02	5.453204208440315170e+01
4.230000000000000000e+02	5.481488688650832586e+01
4.240000000000000000e+02	5.511325241621228344e+01
4.250000000000000000e+02	5.542265242161571592e+01
4.260000000000000000e+02	5.573705314841600966e+01
4.270000000000000000e+02	5.604922978225211949e+01
4.280000000000000000e+02	5.635108326952465774e+01
4.290000000000000000e+02	5.663473551526810468e+01
4.300000000000000000e+02	5.689592027194790802e+01
4.310000000000000000e+02	5.713463721631553227e+01
4.320000000000000000e+02	5.735498282432593697e+01
4.330000000000000000e+02	5.756506778365839949e+01
4.340000000000000000e+02	5.777552306007482485e+01
4.350000000000000000e+02	5.799351133279120774e+01
4.360000000000000000e+02	5.822145213974454236e+01
4.370000000000000000e+02	5.845716810286731402e+01
4.380000000000000000e+02	5.869391696246039203e+01
4.390000000000000000e+02	5.892183199945571914e+01
4.400000000000000000e+02	5.913364687139370091e+01
4.410000000000000000e+02	5.932588037100412492e+01
4.420000000000000000e+02	5.949856170195752725e+01
4.430000000000000000e+02	5.965496291010767749e+01
4.440000000000000000e+02	5.980037480347128565e+01
4.450000000000000000e+02	5.993817265042054743e+01
4.460000000000000000e+02	6.006910197131241347e+01
4.470000000000000000e+02	6.019158262224254941e+01
4.480000000000000000e+02	6.030199079407469753e+01
4.490000000000000000e+02	6.039562429719662617e+01
4.500000000000000000e+02	6.046969625240559765e+01
4.510000000000000000e+02	6.052404121135660375e+01
4.520000000000000000e+02	6.056111462377349852e+01
4.530000000000000000e+02	6.058603672631659975e+01
4.540000000000000000e+02	6.060595538153487638e+01
4.550000000000000000e+02	6.062719028516769271e+01
4.560000000000000000e+02	6.065430692732685003e+01
4.570000000000000000e+02	6.068980682300946228e+01
4.580000000000000000e+02	6.073379927349363783e+01
4.590000000000000000e+02	6.078425139989405324e+01
4.600000000000000000e+02	6.083899103306351464e+01
4.610000000000000000e+02	6.089631724989290973e+01
4.620000000000000000e+02	6.095514965414510300e+01
4.630000000000000000e+02	6.101517220361046157e+01
4.640000000000000000e+02	6.107667738909869826e+01
4.650000000000000000e+02	6.113951040913006096e+01
4.660000000000000000e+02	6.120279653691741828e+01
4.670000000000000000e+02	6.126506511099691465e+01
4.680000000000000000e+02	6.132427664244401910e+01
4.690000000000000000e+02	6.137832042482796169e+01
4.700000000000000000e+02	6.142702338024461994e+01
4.710000000000000000e+02	6.147254745967034495e+01
4.720000000000000000e+02	6.151927680729853876e+01
4.730000000000000000e+02	6.157370903941516360e+01
4.740000000000000000e+02	6.164337264169815001e+01
4.750000000000000000e+02	6.173291343737602688e+01
4.760000000000000000e+02	6.184321085769291670e+01
4.770000000000000000e+02	6.197146391037141200e+01
4.780000000000000000e+02	6.211125609424985328e+01
4.790000000000000000e+02	6.225370438572994658e+01
4.800000000000000000e+02	6.239197238407142265e+01
4.810000000000000000e+02	6.252246841190019921e+01
4.820000000000000000e+02	6.264494643786274963e+01
4.830000000000000000e+02	6.276263540501377491e+01
4.840000000000000000e+02	6.288132795642839312e+01
4.850000000000000000e+02	6.300520263022266221e+01
4.860000000000000000e+02	6.313574501671096328e+01
4.870000000000000000e+02	6.327163445924543339e+01
4.880000000000000000e+02	6.340857413951135868e+01
4.890000000000000000e+02	6.354019899521933468e+01
4.900000000000000000e+02	6.366225701184514207e+01
4.910000000000000000e+02	6.377351935651996229e+01
4.920000000000000000e+02	6.387561378351939112e+01
4.930000000000000000e+02	6.397285539417209321e+01
4.940000000000000000e+02	6.407111487484506540e+01
4.950000000000000000e+02	6.417396052513058180e+01
4.960000000000000000e+02	6.428204957375965023e+01
4.970000000000000000e+02	6.439354414930389225e+01
4.980000000000000000e+02	6.450448225334721997e+01
4.990000000000000000e+02	6.460981342950658757e+01
5.000000000000000000e+02	6.470643566151105119e+01
5.010000000000000000e+02	6.479358695959125214e+01
5.020000000000000000e+02	6.487244535315227267e+01
5.030000000000000000e+02	6.494575752578661820e+01
5.040000000000000000e+02	6.501692563520218471e+01
5.050000000000000000e+02	6.508759731912361701e+01
5.060000000000000000e+02	6.515745026727762479e+01
5.070000000000000000e+02	6.522464764103725088e+01
5.080000000000000000e+02	6.528626613516019006e+01
5.090000000000000000e+02	6.533917419904906865e+01
5.100000000000000000e+02	6.538223209723076934e+01
5.110000000000000000e+02	6.541661769697498130e+01
5.120000000000000000e+02	6.544557539822162084e+01
5.130000000000000000e+02	6.547420780825713393e+01
5.140000000000000000e+02	6.550867015512520197e+01
5.150000000000000000e+02	6.555347608555243255e+01
5.160000000000000000e+02	6.561073020923339527e+01
5.170000000000000000e+02	6.567997086682922259e+01
5.180000000000000000e+02	6.575800366902632277e+01
5.190000000000000000e+02	6.583944615806184686e+01
5.200000000000000000e+02	6.591939695818298617e+01
5.210000000000000000e+02	6.599428931192085201e+01
5.220000000000000000e+02	6.606210964317297396e+01
5.230000000000000000e+02	6.612260735342056250e+01
5.240000000000000000e+02	6.617707734514642937e+01
5.250000000000000000e+02	6.622677326237720763e+01
5.260000000000000000e+02	6.627237412340176093e+01
5.270000000000000000e+02	6.631380680008605566e+01
5.280000000000000000e+02	6.635006162715474431e+01
5.290000000000000000e+02	6.637941715960381828e+01
5.300000000000000000e+02	6.640093567212727521e+01
5.310000000000000000e+02	6.641497411269222084e+01
5.320000000000000000e+02	6.642335712768792177e+01
5.330000000000000000e+02	6.642956928758522395e+01
5.340000000000000000e+02	6.643830101836580582e+01
5.350000000000000000e+02	6.645291739190847125e+01
5.360000000000000000e+02	6.647464986716001079e+01
5.370000000000000000e+02	6.650234841287463894e+01
5.380000000000000000e+02	6.653221414477384599e+01
5.390000000000000000e+02	6.655850211953894302e+01
5.400000000000000000e+02	6.657715628660325535e+01
5.410000000000000000e+02	6.658682203207035855e+01
5.420000000000000000e+02	6.658896110707435412e+01
5.430000000000000000e+02	6.658797735350979963e+01
5.440000000000000000e+02	6.659035785352097037e+01
5.450000000000000000e+02	6.660077398136509430e+01
5.460000000000000000e+02	6.662107908473123530e+01
5.470000000000000000e+02	6.665023250346139605e+01
5.480000000000000000e+02	6.668417686647228493e+01
5.490000000000000000e+02	6.671668712314931327e+01
5.500000000000000000e+02	6.674319691540802069e+01
5.510000000000000000e+02	6.676179667986582444e+01
5.520000000000000000e+02	6.677329639063654554e+01
5.530000000000000000e+02	6.678130585208785419e+01
5.540000000000000000e+02	6.679152241055066952e+01
5.550000000000000000e+02	6.680857657566531316e+01
5.560000000000000000e+02	6.683518310497927928e+01
5.570000000000000000e+02	6.687206492630657806e+01
5.580000000000000000e+02	6.691784270652644295e+01
5.590000000000000000e+02	6.696945793822985138e+01
5.600000000000000000e+02	6.702426156344206731e+01
5.610000000000000000e+02	6.708054766463386898e+01
5.620000000000000000e+02	6.713756995345254097e+01
5.630000000000000000e+02	6.719556428305953943e+01
5.640000000000000000e+02	6.725542627989260325e+01
5.650000000000000000e+02	6.731737982205856952e+01
5.660000000000000000e+02	6.738079596727361320e+01
5.670000000000000000e+02	6.744437398099837822e+01
5.680000000000000000e+02	6.750629951516413030e+01
5.690000000000000000e+02	6.756458739574716788e+01
5.700000000000000000e+02	6.761803884962452571e+01
5.710000000000000000e+02	6.766633817729855593e+01
5.720000000000000000e+02	6.770989327585935769e+01
5.730000000000000000e+02	6.774968738524599132e+01
5.740000000000000000e+02	6.778695536804865185e+01
5.750000000000000000e+02	6.782235157056555863e+01
5.760000000000000000e+02	6.785578703019402269e+01
5.770000000000000000e+02	6.788647614721369905e+01
5.780000000000000000e+02	6.791297864713891386e+01
5.790000000000000000e+02	6.793352394894927215e+01
5.800000000000000000e+02	6.794718784838816816e+01
5.810000000000000000e+02	6.795419766285942842e+01
5.820000000000000000e+02	6.795595736735349135e+01
5.830000000000000000e+02	6.795508435485282916e+01
5.840000000000000000e+02	6.795500896498396060e+01
5.850000000000000000e+02	6.795821266252632142e+01
5.860000000000000000e+02	6.796571759154637959e+01
5.870000000000000000e+02	6.797698580435090321e+01
5.880000000000000000e+02	6.798980658104893848e+01
5.890000000000000000e+02	6.800072277526211906e+01
5.900000000000000000e+02	6.800712048582465741e+01
5.910000000000000000e+02	6.800785984431912823e+01
5.920000000000000000e+02	6.800341437254547827e+01
5.930000000000000000e+02	6.799603082581639057e+01
5.940000000000000000e+02	6.798934102332283658e+01
5.950000000000000000e+02	6.798625685745207647e+01
5.960000000000000000e+02	6.798837431041205548e+01
5.970000000000000000e+02	6.799587060389180238e+01
5.980000000000000000e+02	6.800737900977331662e+01
5.990000000000000000e+02	6.802039814050010591e+01
6.000000000000000000e+02	6.803334984601566759e+01
6.010000000000000000e+02	6.804603185128458165e+01
6.020000000000000000e+02	6.805952906104519684e+01
6.030000000000000000e+02	6.807613771914799372e+01
6.040000000000000000e+02	6.809872851856927412e+01
6.050000000000000000e+02	6.812847332538036937e+01
6.060000000000000000e+02	6.816447122699511851e+01
6.070000000000000000e+02	6.820397543125477569e+01
6.080000000000000000e+02	6.824259322313886855e+01
6.090000000000000000e+02	6.827513581689072453e+01
6.100000000000000000e+02	6.829843054017294435e+01
6.110000000000000000e+02	6.831184228254697643e+01
6.120000000000000000e+02	6.831707965342334887e+01
6.130000000000000000e+02	6.831802255494751819e+01
6.140000000000000000e+02	6.831986173812416041e+01
6.150000000000000000e+02	6.832619035595404000e+01
6.160000000000000000e+02	6.833845874018699362e+01
6.170000000000000000e+02	6.835618685860940502e+01
6.180000000000000000e+02	6.837715104938057209e+01
6.190000000000000000e+02	6.839808870706175981e+01
6.200000000000000000e+02	6.841698993305206500e+01
6.210000000000000000e+02	6.843352710416458251e+01
6.220000000000000000e+02	6.844889967340698433e+01
6.230000000000000000e+02	6.846568301679808144e+01
6.240000000000000000e+02	6.848717038576685923e+01
6.250000000000000000e+02	6.851529098461973888e+01
6.260000000000000000e+02	6.855025743946983141e+01
6.270000000000000000e+02	6.859075114087318070e+01
6.280000000000000000e+02	6.863404413230522039e+01
6.290000000000000000e+02	6.867653994299892872e+01
6.300000000000000000e+02	6.871582538329204226e+01
6.310000000000000000e+02	6.875115964281739878e+01
6.320000000000000000e+02	6.878351256789400736e+01
6.330000000000000000e+02	6.881561538424649882e+01
6.340000000000000000e+02	6.885136939436347348e+01
6.350000000000000000e+02	6.889349504476759023e+01
6.360000000000000000e+02	6.894295129613419704e+01
6.370000000000000000e+02	6.899905520506561629e+01
6.380000000000000000e+02	6.905965814291504046e+01
6.390000000000000000e+02	6.912169816966475366e+01
6.400000000000000000e+02	6.918284254034364267e+01
6.410000000000000000e+02	6.924188607510480153e+01
6.420000000000000000e+02	6.929876801184545343e+01
6.430000000000000000e+02	6.935460825714663713e+01
6.440000000000000000e+02	6.941138210869060288e+01
6.450000000000000000e+02	6.947043877157400971e+01
6.460000000000000000e+02	6.953200918172198897e+01
6.470000000000000000e+02	6.959504497232609310e+01
6.480000000000000000e+02	6.965705008412002996e+01
6.490000000000000000e+02	6.971443407581790552e+01
6.500000000000000000e+02	6.976449038145192105e+01
6.510000000000000000e+02	6.980606697544082806e+01
6.520000000000000000e+02	6.983978528865702629e+01
6.530000000000000000e+02	6.986827820112357301e+01
6.540000000000000000e+02	6.989581328526494985e+01
6.550000000000000000e+02	6.992590327895403846e+01
6.560000000000000000e+02	6.996049623623871128e+01
6.570000000000000000e+02	6.999968840458953423e+01
6.580000000000000000e+02	7.004141087667557031e+01
6.590000000000000000e+02	7.008180366899661351e+01
6.600000000000000000e+02	7.011774972041382625e+01
6.610000000000000000e+02	7.014765360362056867e+01
6.620000000000000000e+02	7.017160507988185714e+01
6.630000000000000000e+02	7.019155313151156861e+01
6.640000000000000000e+02	7.021082418733708153e+01
6.650000000000000000e+02	7.023158235766550206e+01
6.660000000000000000e+02	7.025418393757635727e+01
6.670000000000000000e+02	7.027714368764752351e+01
6.680000000000000000e+02	7.029707581205433087e+01
6.690000000000000000e+02	7.030932809192896116e+01
6.700000000000000000e+02	7.031071698396038983e+01
6.710000000000000000e+02	7.030019928346094105e+01
6.720000000000000000e+02	7.027886986554334214e+01
6.730000000000000000e+02	7.025001522162420997e+01
6.740000000000000000e+02	7.021861902561880697e+01
6.750000000000000000e+02	7.018895757436381189e+01
6.760000000000000000e+02	7.016384783667362512e+01
6.770000000000000000e+02	7.014433889562413071e+01
6.780000000000000000e+02	7.012928922189023240e+01
6.790000000000000000e+02	7.011556860338428976e+01
6.800000000000000000e+02	7.010034504880982809e+01
6.810000000000000000e+02	7.008187009804665024e+01
6.820000000000000000e+02	7.005964007989101106e+01
6.830000000000000000e+02	7.003450243402187425e+01
6.840000000000000000e+02	7.000843862739959889e+01
6.850000000000000000e+02	6.998339631884529410e+01
6.860000000000000000e+02	6.996094391319107331e+01
6.870000000000000000e+02	6.994219211633597411e+01
6.880000000000000000e+02	6.992770318856314304e+01
6.890000000000000000e+02	6.991745763437499761e+01
6.900000000000000000e+02	6.991105317746797709e+01
6.910000000000000000e+02	6.990787149246169463e+01
6.920000000000000000e+02	6.990721868298679453e+01
6.930000000000000000e+02	6.990846365337624491e+01
6.940000000000000000e+02	6.991113776475212660e+01
6.950000000000000000e+02	6.991488368443387458e+01
6.960000000000000000e+02	6.991936194016531658e+01
6.970000000000000000e+02	6.992415383273937834e+01
6.980000000000000000e+02	6.992866200546332323e+01
6.990000000000000000e+02	6.993221208530721356e+01
7.000000000000000000e+02	6.993477097283206945e+01
7.010000000000000000e+02	6.993709162121331246e+01
7.020000000000000000e+02	6.994066691721843654e+01
7.030000000000000000e+02	6.994768667199065248e+01
7.040000000000000000e+02	6.996063705077857264e+01
7.050000000000000000e+02	6.998083751616330517e+01
7.060000000000000000e+02	7.000811262252474876e+01
7.070000000000000000e+02	7.004083410847651692e+01
7.080000000000000000e+02	7.007595545537847670e+01
7.090000000000000000e+02	7.010942569008851422e+01
7.100000000000000000e+02	7.013778212775312682e+01
7.110000000000000000e+02	7.015867911451375960e+01
7.120000000000000000e+02	7.017106149107837609e+01
7.130000000000000000e+02	7.017535262747050240e+01
7.140000000000000000e+02	7.017337712609896982e+01
7.150000000000000000e+02	7.016735262542334794e+01
7.160000000000000000e+02	7.015940183273667685e+01
7.170000000000000000e+02	7.015124988041921483e+01
7.180000000000000000e+02	7.014391849713214810e+01
7.190000000000000000e+02	7.013759324836675546e+01
7.200000000000000000e+02	7.013199238536398639e+01
7.210000000000000000e+02	7.012665493475296330e+01
7.220000000000000000e+02	7.012117372983179564e+01
7.230000000000000000e+02	7.011543000512837409e+01
7.240000000000000000e+02	7.010975965139367361e+01
7.250000000000000000e+02	7.010483983058801982e+01
7.260000000000000000e+02	7.010152788919513966e+01
7.270000000000000000e+02	7.010070263838646554e+01
7.280000000000000000e+02	7.010310165306121633e+01
7.290000000000000000e+02	7.010913372738180271e+01
7.300000000000000000e+02	7.011866167693113994e+01
7.310000000000000000e+02	7.013099898394190745e+01
7.320000000000000000e+02	7.014496453129096665e+01
7.330000000000000000e+02	7.015893577404281700e+01
7.340000000000000000e+02	7.017104033191139933e+01
7.350000000000000000e+02	7.017976654906105693e+01
