wl (nm)	EQE (%)
3.500000e+02	2.705117e+01
3.510000e+02	2.681411e+01
3.520000e+02	2.657705e+01
3.530000e+02	2.633999e+01
3.540000e+02	2.610293e+01
3.550000e+02	2.586588e+01
3.560000e+02	2.584617e+01
3.570000e+02	2.582646e+01
3.580000e+02	2.580676e+01
3.590000e+02	2.578705e+01
3.600000e+02	2.576735e+01
3.610000e+02	2.569969e+01
3.620000e+02	2.563202e+01
3.630000e+02	2.556436e+01
3.640000e+02	2.549670e+01
3.650000e+02	2.542904e+01
3.660000e+02	2.529659e+01
3.670000e+02	2.516415e+01
3.680000e+02	2.503171e+01
3.690000e+02	2.489927e+01
3.700000e+02	2.476682e+01
3.710000e+02	2.524366e+01
3.720000e+02	2.572050e+01
3.730000e+02	2.619734e+01
3.740000e+02	2.667418e+01
3.750000e+02	2.715102e+01
3.760000e+02	2.742945e+01
3.770000e+02	2.770787e+01
3.780000e+02	2.798630e+01
3.790000e+02	2.826473e+01
3.800000e+02	2.854315e+01
3.810000e+02	2.929345e+01
3.820000e+02	3.004374e+01
3.830000e+02	3.079404e+01
3.840000e+02	3.154434e+01
3.850000e+02	3.229463e+01
3.860000e+02	3.289992e+01
3.870000e+02	3.350521e+01
3.880000e+02	3.411049e+01
3.890000e+02	3.471578e+01
3.900000e+02	3.532107e+01
3.910000e+02	3.606291e+01
3.920000e+02	3.680476e+01
3.930000e+02	3.754660e+01
3.940000e+02	3.828844e+01
3.950000e+02	3.903029e+01
3.960000e+02	3.954554e+01
3.970000e+02	4.006078e+01
3.980000e+02	4.057603e+01
3.990000e+02	4.109128e+01
4.000000e+02	4.160653e+01
4.010000e+02	4.224625e+01
4.020000e+02	4.288597e+01
4.030000e+02	4.352569e+01
4.040000e+02	4.416541e+01
4.050000e+02	4.480514e+01
4.060000e+02	4.533955e+01
4.070000e+02	4.587396e+01
4.080000e+02	4.640837e+01
4.090000e+02	4.694278e+01
4.100000e+02	4.747719e+01
4.110000e+02	4.789025e+01
4.120000e+02	4.830332e+01
4.130000e+02	4.871639e+01
4.140000e+02	4.912946e+01
4.150000e+02	4.954253e+01
4.160000e+02	4.978042e+01
4.170000e+02	5.001832e+01
4.180000e+02	5.025621e+01
4.190000e+02	5.049411e+01
4.200000e+02	5.073200e+01
4.210000e+02	5.109571e+01
4.220000e+02	5.145942e+01
4.230000e+02	5.182312e+01
4.240000e+02	5.218683e+01
4.250000e+02	5.255054e+01
4.260000e+02	5.274926e+01
4.270000e+02	5.294797e+01
4.280000e+02	5.314669e+01
4.290000e+02	5.334541e+01
4.300000e+02	5.354413e+01
4.310000e+02	5.374984e+01
4.320000e+02	5.395555e+01
4.330000e+02	5.416127e+01
4.340000e+02	5.436698e+01
4.350000e+02	5.457269e+01
4.360000e+02	5.472682e+01
4.370000e+02	5.488095e+01
4.380000e+02	5.503507e+01
4.390000e+02	5.518920e+01
4.400000e+02	5.534332e+01
4.410000e+02	5.556401e+01
4.420000e+02	5.578470e+01
4.430000e+02	5.600539e+01
4.440000e+02	5.622608e+01
4.450000e+02	5.644677e+01
4.460000e+02	5.644757e+01
4.470000e+02	5.644838e+01
4.480000e+02	5.644918e+01
4.490000e+02	5.644998e+01
4.500000e+02	5.645078e+01
4.510000e+02	5.664117e+01
4.520000e+02	5.683155e+01
4.530000e+02	5.702194e+01
4.540000e+02	5.721233e+01
4.550000e+02	5.740272e+01
4.560000e+02	5.748718e+01
4.570000e+02	5.757164e+01
4.580000e+02	5.765610e+01
4.590000e+02	5.774056e+01
4.600000e+02	5.782502e+01
4.610000e+02	5.798934e+01
4.620000e+02	5.815366e+01
4.630000e+02	5.831799e+01
4.640000e+02	5.848231e+01
4.650000e+02	5.864663e+01
4.660000e+02	5.868852e+01
4.670000e+02	5.873042e+01
4.680000e+02	5.877231e+01
4.690000e+02	5.881421e+01
4.700000e+02	5.885610e+01
4.710000e+02	5.899315e+01
4.720000e+02	5.913020e+01
4.730000e+02	5.926725e+01
4.740000e+02	5.940429e+01
4.750000e+02	5.954134e+01
4.760000e+02	5.964895e+01
4.770000e+02	5.975656e+01
4.780000e+02	5.986416e+01
4.790000e+02	5.997177e+01
4.800000e+02	6.007938e+01
4.810000e+02	6.014999e+01
4.820000e+02	6.022060e+01
4.830000e+02	6.029122e+01
4.840000e+02	6.036183e+01
4.850000e+02	6.043244e+01
4.860000e+02	6.048404e+01
4.870000e+02	6.053563e+01
4.880000e+02	6.058723e+01
4.890000e+02	6.063882e+01
4.900000e+02	6.069042e+01
4.910000e+02	6.080552e+01
4.920000e+02	6.092061e+01
4.930000e+02	6.103571e+01
4.940000e+02	6.115080e+01
4.950000e+02	6.126590e+01
4.960000e+02	6.131646e+01
4.970000e+02	6.136702e+01
4.980000e+02	6.141758e+01
4.990000e+02	6.146813e+01
5.000000e+02	6.151869e+01
5.010000e+02	6.160563e+01
5.020000e+02	6.169256e+01
5.030000e+02	6.177949e+01
5.040000e+02	6.186643e+01
5.050000e+02	6.195336e+01
5.060000e+02	6.201636e+01
5.070000e+02	6.207937e+01
5.080000e+02	6.214237e+01
5.090000e+02	6.220538e+01
5.100000e+02	6.226838e+01
5.110000e+02	6.226439e+01
5.120000e+02	6.226040e+01
5.130000e+02	6.225641e+01
5.140000e+02	6.225242e+01
5.150000e+02	6.224843e+01
5.160000e+02	6.230710e+01
5.170000e+02	6.236576e+01
5.180000e+02	6.242442e+01
5.190000e+02	6.248309e+01
5.200000e+02	6.254175e+01
5.210000e+02	6.256560e+01
5.220000e+02	6.258946e+01
5.230000e+02	6.261331e+01
5.240000e+02	6.263716e+01
5.250000e+02	6.266101e+01
5.260000e+02	6.271453e+01
5.270000e+02	6.276804e+01
5.280000e+02	6.282156e+01
5.290000e+02	6.287508e+01
5.300000e+02	6.292859e+01
5.310000e+02	6.292216e+01
5.320000e+02	6.291573e+01
5.330000e+02	6.290930e+01
5.340000e+02	6.290287e+01
5.350000e+02	6.289644e+01
5.360000e+02	6.299389e+01
5.370000e+02	6.309135e+01
5.380000e+02	6.318880e+01
5.390000e+02	6.328626e+01
5.400000e+02	6.338371e+01
5.410000e+02	6.339385e+01
5.420000e+02	6.340398e+01
5.430000e+02	6.341411e+01
5.440000e+02	6.342425e+01
5.450000e+02	6.343438e+01
5.460000e+02	6.346103e+01
5.470000e+02	6.348769e+01
5.480000e+02	6.351434e+01
5.490000e+02	6.354100e+01
5.500000e+02	6.356765e+01
5.510000e+02	6.363045e+01
5.520000e+02	6.369325e+01
5.530000e+02	6.375604e+01
5.540000e+02	6.381884e+01
5.550000e+02	6.388164e+01
5.560000e+02	6.392181e+01
5.570000e+02	6.396198e+01
5.580000e+02	6.400215e+01
5.590000e+02	6.404231e+01
5.600000e+02	6.408248e+01
5.610000e+02	6.411395e+01
5.620000e+02	6.414542e+01
5.630000e+02	6.417689e+01
5.640000e+02	6.420836e+01
5.650000e+02	6.423983e+01
5.660000e+02	6.420897e+01
5.670000e+02	6.417811e+01
5.680000e+02	6.414726e+01
5.690000e+02	6.411640e+01
5.700000e+02	6.408555e+01
5.710000e+02	6.410973e+01
5.720000e+02	6.413391e+01
5.730000e+02	6.415809e+01
5.740000e+02	6.418227e+01
5.750000e+02	6.420645e+01
5.760000e+02	6.418332e+01
5.770000e+02	6.416020e+01
5.780000e+02	6.413707e+01
5.790000e+02	6.411395e+01
5.800000e+02	6.409082e+01
5.810000e+02	6.413571e+01
5.820000e+02	6.418059e+01
5.830000e+02	6.422548e+01
5.840000e+02	6.427037e+01
5.850000e+02	6.431525e+01
5.860000e+02	6.432114e+01
5.870000e+02	6.432702e+01
5.880000e+02	6.433290e+01
5.890000e+02	6.433878e+01
5.900000e+02	6.434467e+01
5.910000e+02	6.436114e+01
5.920000e+02	6.437762e+01
5.930000e+02	6.439409e+01
5.940000e+02	6.441056e+01
5.950000e+02	6.442704e+01
5.960000e+02	6.445291e+01
5.970000e+02	6.447877e+01
5.980000e+02	6.450464e+01
5.990000e+02	6.453050e+01
6.000000e+02	6.455637e+01
6.010000e+02	6.448302e+01
6.020000e+02	6.440968e+01
6.030000e+02	6.433633e+01
6.040000e+02	6.426298e+01
6.050000e+02	6.418963e+01
6.060000e+02	6.423719e+01
6.070000e+02	6.428475e+01
6.080000e+02	6.433231e+01
6.090000e+02	6.437988e+01
6.100000e+02	6.442744e+01
6.110000e+02	6.443273e+01
6.120000e+02	6.443803e+01
6.130000e+02	6.444333e+01
6.140000e+02	6.444862e+01
6.150000e+02	6.445392e+01
6.160000e+02	6.450085e+01
6.170000e+02	6.454778e+01
6.180000e+02	6.459471e+01
6.190000e+02	6.464164e+01
6.200000e+02	6.468857e+01
6.210000e+02	6.468587e+01
6.220000e+02	6.468318e+01
6.230000e+02	6.468048e+01
6.240000e+02	6.467779e+01
6.250000e+02	6.467509e+01
6.260000e+02	6.468021e+01
6.270000e+02	6.468533e+01
6.280000e+02	6.469045e+01
6.290000e+02	6.469556e+01
6.300000e+02	6.470068e+01
6.310000e+02	6.469421e+01
6.320000e+02	6.468775e+01
6.330000e+02	6.468128e+01
6.340000e+02	6.467481e+01
6.350000e+02	6.466835e+01
6.360000e+02	6.471483e+01
6.370000e+02	6.476131e+01
6.380000e+02	6.480780e+01
6.390000e+02	6.485428e+01
6.400000e+02	6.490076e+01
6.410000e+02	6.489501e+01
6.420000e+02	6.488927e+01
6.430000e+02	6.488352e+01
6.440000e+02	6.487777e+01
6.450000e+02	6.487202e+01
6.460000e+02	6.485339e+01
6.470000e+02	6.483475e+01
6.480000e+02	6.481612e+01
6.490000e+02	6.479748e+01
6.500000e+02	6.477885e+01
6.510000e+02	6.483826e+01
6.520000e+02	6.489767e+01
6.530000e+02	6.495708e+01
6.540000e+02	6.501650e+01
6.550000e+02	6.507591e+01
6.560000e+02	6.512181e+01
6.570000e+02	6.516772e+01
6.580000e+02	6.521362e+01
6.590000e+02	6.525952e+01
6.600000e+02	6.530543e+01
6.610000e+02	6.522868e+01
6.620000e+02	6.515193e+01
6.630000e+02	6.507518e+01
6.640000e+02	6.499844e+01
6.650000e+02	6.492169e+01
6.660000e+02	6.490731e+01
6.670000e+02	6.489293e+01
6.680000e+02	6.487854e+01
6.690000e+02	6.486416e+01
6.700000e+02	6.484978e+01
6.710000e+02	6.482332e+01
6.720000e+02	6.479686e+01
6.730000e+02	6.477041e+01
6.740000e+02	6.474395e+01
6.750000e+02	6.471749e+01
6.760000e+02	6.474516e+01
6.770000e+02	6.477282e+01
6.780000e+02	6.480049e+01
6.790000e+02	6.482815e+01
6.800000e+02	6.485582e+01
6.810000e+02	6.486897e+01
6.820000e+02	6.488213e+01
6.830000e+02	6.489529e+01
6.840000e+02	6.490844e+01
6.850000e+02	6.492160e+01
6.860000e+02	6.494722e+01
6.870000e+02	6.497284e+01
6.880000e+02	6.499846e+01
6.890000e+02	6.502408e+01
6.900000e+02	6.504970e+01
6.910000e+02	6.503754e+01
6.920000e+02	6.502538e+01
6.930000e+02	6.501322e+01
6.940000e+02	6.500106e+01
6.950000e+02	6.498890e+01
6.960000e+02	6.492170e+01
6.970000e+02	6.485450e+01
6.980000e+02	6.478729e+01
6.990000e+02	6.472009e+01
7.000000e+02	6.465288e+01
7.010000e+02	6.464553e+01
7.020000e+02	6.463818e+01
7.030000e+02	6.463083e+01
7.040000e+02	6.462348e+01
7.050000e+02	6.461613e+01
7.060000e+02	6.466058e+01
7.070000e+02	6.470504e+01
7.080000e+02	6.474949e+01
7.090000e+02	6.479395e+01
7.100000e+02	6.483840e+01
7.110000e+02	6.487224e+01
7.120000e+02	6.490607e+01
7.130000e+02	6.493990e+01
7.140000e+02	6.497374e+01
7.150000e+02	6.500757e+01
7.160000e+02	6.496246e+01
7.170000e+02	6.491736e+01
7.180000e+02	6.487225e+01
7.190000e+02	6.482714e+01
7.200000e+02	6.478204e+01
7.210000e+02	6.480830e+01
7.220000e+02	6.483456e+01
7.230000e+02	6.486083e+01
7.240000e+02	6.488709e+01
7.250000e+02	6.491335e+01
7.260000e+02	6.489360e+01
7.270000e+02	6.487385e+01
7.280000e+02	6.485410e+01
7.290000e+02	6.483435e+01
7.300000e+02	6.481460e+01
7.310000e+02	6.479834e+01
7.320000e+02	6.478208e+01
7.330000e+02	6.476582e+01
7.340000e+02	6.474956e+01
7.350000e+02	6.473330e+01
7.360000e+02	6.473398e+01
7.370000e+02	6.473467e+01
7.380000e+02	6.473535e+01
7.390000e+02	6.473603e+01
7.400000e+02	6.473671e+01
7.410000e+02	6.476286e+01
7.420000e+02	6.478901e+01
7.430000e+02	6.481516e+01
7.440000e+02	6.484131e+01
7.450000e+02	6.486745e+01
7.460000e+02	6.481824e+01
7.470000e+02	6.476903e+01
7.480000e+02	6.471982e+01
7.490000e+02	6.467061e+01
7.500000e+02	6.462139e+01
7.510000e+02	6.464145e+01
7.520000e+02	6.466151e+01
7.530000e+02	6.468157e+01
7.540000e+02	6.470163e+01
7.550000e+02	6.472169e+01
7.560000e+02	6.472145e+01
7.570000e+02	6.472120e+01
7.580000e+02	6.472096e+01
7.590000e+02	6.472071e+01
7.600000e+02	6.472047e+01
7.610000e+02	6.468474e+01
7.620000e+02	6.464901e+01
7.630000e+02	6.461328e+01
7.640000e+02	6.457756e+01
7.650000e+02	6.454183e+01
7.660000e+02	6.451895e+01
7.670000e+02	6.449607e+01
7.680000e+02	6.447319e+01
7.690000e+02	6.445031e+01
7.700000e+02	6.442742e+01
7.710000e+02	6.444825e+01
7.720000e+02	6.446907e+01
7.730000e+02	6.448989e+01
7.740000e+02	6.451071e+01
7.750000e+02	6.453153e+01
7.760000e+02	6.458399e+01
7.770000e+02	6.463644e+01
7.780000e+02	6.468890e+01
7.790000e+02	6.474135e+01
7.800000e+02	6.479381e+01
7.810000e+02	6.479749e+01
7.820000e+02	6.480118e+01
7.830000e+02	6.480487e+01
7.840000e+02	6.480855e+01
7.850000e+02	6.481224e+01
7.860000e+02	6.480930e+01
7.870000e+02	6.480636e+01
7.880000e+02	6.480342e+01
7.890000e+02	6.480048e+01
7.900000e+02	6.479755e+01
7.910000e+02	6.478358e+01
7.920000e+02	6.476962e+01
7.930000e+02	6.475566e+01
7.940000e+02	6.474170e+01
7.950000e+02	6.472774e+01
7.960000e+02	6.468291e+01
7.970000e+02	6.463807e+01
7.980000e+02	6.459324e+01
7.990000e+02	6.454840e+01
8.000000e+02	6.450357e+01
8.010000e+02	6.451155e+01
8.020000e+02	6.451953e+01
8.030000e+02	6.452751e+01
8.040000e+02	6.453549e+01
8.050000e+02	6.454347e+01
8.060000e+02	6.458239e+01
8.070000e+02	6.462131e+01
8.080000e+02	6.466023e+01
8.090000e+02	6.469915e+01
8.100000e+02	6.473807e+01
8.110000e+02	6.471208e+01
8.120000e+02	6.468608e+01
8.130000e+02	6.466008e+01
8.140000e+02	6.463409e+01
8.150000e+02	6.460809e+01
8.160000e+02	6.460562e+01
8.170000e+02	6.460316e+01
8.180000e+02	6.460069e+01
8.190000e+02	6.459823e+01
8.200000e+02	6.459576e+01
8.210000e+02	6.455856e+01
8.220000e+02	6.452137e+01
8.230000e+02	6.448417e+01
8.240000e+02	6.444698e+01
8.250000e+02	6.440978e+01
8.260000e+02	6.440045e+01
8.270000e+02	6.439111e+01
8.280000e+02	6.438178e+01
8.290000e+02	6.437245e+01
8.300000e+02	6.436311e+01
8.310000e+02	6.431812e+01
8.320000e+02	6.427313e+01
8.330000e+02	6.422814e+01
8.340000e+02	6.418315e+01
8.350000e+02	6.413816e+01
8.360000e+02	6.415694e+01
8.370000e+02	6.417572e+01
8.380000e+02	6.419450e+01
8.390000e+02	6.421328e+01
8.400000e+02	6.423206e+01
8.410000e+02	6.421475e+01
8.420000e+02	6.419745e+01
8.430000e+02	6.418014e+01
8.440000e+02	6.416283e+01
8.450000e+02	6.414553e+01
8.460000e+02	6.414820e+01
8.470000e+02	6.415088e+01
8.480000e+02	6.415355e+01
8.490000e+02	6.415623e+01
8.500000e+02	6.415891e+01
8.510000e+02	6.410659e+01
8.520000e+02	6.405427e+01
8.530000e+02	6.400195e+01
8.540000e+02	6.394963e+01
8.550000e+02	6.389731e+01
8.560000e+02	6.392155e+01
8.570000e+02	6.394578e+01
8.580000e+02	6.397002e+01
8.590000e+02	6.399426e+01
8.600000e+02	6.401849e+01
8.610000e+02	6.400541e+01
8.620000e+02	6.399233e+01
8.630000e+02	6.397924e+01
8.640000e+02	6.396616e+01
8.650000e+02	6.395307e+01
8.660000e+02	6.396245e+01
8.670000e+02	6.397184e+01
8.680000e+02	6.398122e+01
8.690000e+02	6.399060e+01
8.700000e+02	6.399998e+01
8.710000e+02	6.400876e+01
8.720000e+02	6.401754e+01
8.730000e+02	6.402632e+01
8.740000e+02	6.403509e+01
8.750000e+02	6.404387e+01
8.760000e+02	6.404477e+01
8.770000e+02	6.404567e+01
8.780000e+02	6.404658e+01
8.790000e+02	6.404748e+01
8.800000e+02	6.404838e+01
8.810000e+02	6.402781e+01
8.820000e+02	6.400725e+01
8.830000e+02	6.398668e+01
8.840000e+02	6.396612e+01
8.850000e+02	6.394556e+01
8.860000e+02	6.394023e+01
8.870000e+02	6.393490e+01
8.880000e+02	6.392958e+01
8.890000e+02	6.392425e+01
8.900000e+02	6.391893e+01
8.910000e+02	6.391613e+01
8.920000e+02	6.391334e+01
8.930000e+02	6.391055e+01
8.940000e+02	6.390776e+01
8.950000e+02	6.390497e+01
8.960000e+02	6.391706e+01
8.970000e+02	6.392915e+01
8.980000e+02	6.394124e+01
8.990000e+02	6.395333e+01
9.000000e+02	6.396542e+01
9.010000e+02	6.388885e+01
9.020000e+02	6.381228e+01
9.030000e+02	6.373571e+01
9.040000e+02	6.365914e+01
9.050000e+02	6.358257e+01
9.060000e+02	6.357753e+01
9.070000e+02	6.357250e+01
9.080000e+02	6.356746e+01
9.090000e+02	6.356243e+01
9.100000e+02	6.355739e+01
9.110000e+02	6.354145e+01
9.120000e+02	6.352551e+01
9.130000e+02	6.350957e+01
9.140000e+02	6.349363e+01
9.150000e+02	6.347768e+01
9.160000e+02	6.347549e+01
9.170000e+02	6.347330e+01
9.180000e+02	6.347110e+01
9.190000e+02	6.346891e+01
9.200000e+02	6.346671e+01
9.210000e+02	6.343567e+01
9.220000e+02	6.340463e+01
9.230000e+02	6.337359e+01
9.240000e+02	6.334255e+01
9.250000e+02	6.331151e+01
9.260000e+02	6.324242e+01
9.270000e+02	6.317332e+01
9.280000e+02	6.310423e+01
9.290000e+02	6.303513e+01
9.300000e+02	6.296604e+01
9.310000e+02	6.293054e+01
9.320000e+02	6.289503e+01
9.330000e+02	6.285953e+01
9.340000e+02	6.282402e+01
9.350000e+02	6.278852e+01
9.360000e+02	6.277744e+01
9.370000e+02	6.276637e+01
9.380000e+02	6.275529e+01
9.390000e+02	6.274421e+01
9.400000e+02	6.273314e+01
9.410000e+02	6.276353e+01
9.420000e+02	6.279392e+01
9.430000e+02	6.282431e+01
9.440000e+02	6.285471e+01
9.450000e+02	6.288510e+01
9.460000e+02	6.280296e+01
9.470000e+02	6.272082e+01
9.480000e+02	6.263868e+01
9.490000e+02	6.255654e+01
9.500000e+02	6.247440e+01
9.510000e+02	6.240842e+01
9.520000e+02	6.234243e+01
9.530000e+02	6.227645e+01
9.540000e+02	6.221046e+01
9.550000e+02	6.214448e+01
9.560000e+02	6.211316e+01
9.570000e+02	6.208184e+01
9.580000e+02	6.205053e+01
9.590000e+02	6.201921e+01
9.600000e+02	6.198789e+01
9.610000e+02	6.193256e+01
9.620000e+02	6.187722e+01
9.630000e+02	6.182188e+01
9.640000e+02	6.176655e+01
9.650000e+02	6.171121e+01
9.660000e+02	6.163869e+01
9.670000e+02	6.156617e+01
9.680000e+02	6.149365e+01
9.690000e+02	6.142114e+01
9.700000e+02	6.134862e+01
9.710000e+02	6.124715e+01
9.720000e+02	6.114568e+01
9.730000e+02	6.104421e+01
9.740000e+02	6.094274e+01
9.750000e+02	6.084127e+01
9.760000e+02	6.073269e+01
9.770000e+02	6.062412e+01
9.780000e+02	6.051554e+01
9.790000e+02	6.040697e+01
9.800000e+02	6.029840e+01
9.810000e+02	6.014419e+01
9.820000e+02	5.998999e+01
9.830000e+02	5.983578e+01
9.840000e+02	5.968157e+01
9.850000e+02	5.952737e+01
9.860000e+02	5.937585e+01
9.870000e+02	5.922433e+01
9.880000e+02	5.907282e+01
9.890000e+02	5.892130e+01
9.900000e+02	5.876979e+01
9.910000e+02	5.859146e+01
9.920000e+02	5.841314e+01
9.930000e+02	5.823481e+01
9.940000e+02	5.805649e+01
9.950000e+02	5.787817e+01
9.960000e+02	5.760389e+01
9.970000e+02	5.732962e+01
9.980000e+02	5.705535e+01
9.990000e+02	5.678107e+01
1.000000e+03	5.650680e+01
1.001000e+03	5.625882e+01
1.002000e+03	5.601084e+01
1.003000e+03	5.576286e+01
1.004000e+03	5.551489e+01
1.005000e+03	5.526691e+01
1.006000e+03	5.492455e+01
1.007000e+03	5.458219e+01
1.008000e+03	5.423983e+01
1.009000e+03	5.389747e+01
1.010000e+03	5.355511e+01
1.011000e+03	5.315758e+01
1.012000e+03	5.276005e+01
1.013000e+03	5.236251e+01
1.014000e+03	5.196498e+01
1.015000e+03	5.156745e+01
1.016000e+03	5.113198e+01
1.017000e+03	5.069651e+01
1.018000e+03	5.026104e+01
1.019000e+03	4.982557e+01
1.020000e+03	4.939010e+01
1.021000e+03	4.888403e+01
1.022000e+03	4.837796e+01
1.023000e+03	4.787188e+01
1.024000e+03	4.736581e+01
1.025000e+03	4.685973e+01
1.026000e+03	4.631903e+01
1.027000e+03	4.577833e+01
1.028000e+03	4.523763e+01
1.029000e+03	4.469693e+01
1.030000e+03	4.415623e+01
1.031000e+03	4.355950e+01
1.032000e+03	4.296277e+01
1.033000e+03	4.236604e+01
1.034000e+03	4.176930e+01
1.035000e+03	4.117257e+01
1.036000e+03	4.053196e+01
1.037000e+03	3.989135e+01
1.038000e+03	3.925074e+01
1.039000e+03	3.861014e+01
1.040000e+03	3.796953e+01
1.041000e+03	3.729926e+01
1.042000e+03	3.662899e+01
1.043000e+03	3.595872e+01
1.044000e+03	3.528845e+01
1.045000e+03	3.461818e+01
1.046000e+03	3.393702e+01
1.047000e+03	3.325586e+01
1.048000e+03	3.257471e+01
1.049000e+03	3.189355e+01
1.050000e+03	3.121239e+01
1.051000e+03	3.051426e+01
1.052000e+03	2.981613e+01
1.053000e+03	2.911800e+01
1.054000e+03	2.841987e+01
1.055000e+03	2.772174e+01
1.056000e+03	2.705157e+01
1.057000e+03	2.638141e+01
1.058000e+03	2.571125e+01
1.059000e+03	2.504108e+01
1.060000e+03	2.437092e+01
1.061000e+03	2.379031e+01
1.062000e+03	2.320970e+01
1.063000e+03	2.262910e+01
1.064000e+03	2.204849e+01
1.065000e+03	2.146788e+01
1.066000e+03	2.099408e+01
1.067000e+03	2.052029e+01
1.068000e+03	2.004649e+01
1.069000e+03	1.957269e+01
1.070000e+03	1.909889e+01
1.071000e+03	1.870186e+01
1.072000e+03	1.830482e+01
1.073000e+03	1.790778e+01
1.074000e+03	1.751075e+01
1.075000e+03	1.711371e+01
1.076000e+03	1.676637e+01
1.077000e+03	1.641902e+01
1.078000e+03	1.607168e+01
1.079000e+03	1.572434e+01
1.080000e+03	1.537700e+01
1.081000e+03	1.504236e+01
1.082000e+03	1.470771e+01
1.083000e+03	1.437307e+01
1.084000e+03	1.403843e+01
1.085000e+03	1.370378e+01
1.086000e+03	1.339399e+01
1.087000e+03	1.308419e+01
1.088000e+03	1.277439e+01
1.089000e+03	1.246459e+01
1.090000e+03	1.215479e+01
1.091000e+03	1.186848e+01
1.092000e+03	1.158216e+01
1.093000e+03	1.129585e+01
1.094000e+03	1.100953e+01
1.095000e+03	1.072321e+01
1.096000e+03	1.047176e+01
1.097000e+03	1.022031e+01
1.098000e+03	9.968853e+00
1.099000e+03	9.717400e+00
1.100000e+03	9.465946e+00
